time (s) 	 Output Voltage(v) 	 Input Voltage(v)
0.00000000 	 -0.07875398 	 0.05046899 
0.01666666 	 -0.08233446 	 0.06283794 
0.03333332 	 -0.08689145 	 0.07488139 
0.04999998 	 -0.09242492 	 0.08822684 
0.06666664 	 -0.09795840 	 0.09994479 
0.08333330 	 -0.10446837 	 0.11231374 
0.09999996 	 -0.11065285 	 0.12533368 
0.11666662 	 -0.11748832 	 0.13770263 
0.13333328 	 -0.12464929 	 0.15104808 
0.14999994 	 -0.13181026 	 0.16309153 
0.16666660 	 -0.14027323 	 0.17676247 
0.18333326 	 -0.14906169 	 0.18848043 
0.19999992 	 -0.15719916 	 0.20084937 
0.21666658 	 -0.16598762 	 0.21321832 
0.23333324 	 -0.17542708 	 0.22558727 
0.24999990 	 -0.18454105 	 0.23697973 
0.26666656 	 -0.19332951 	 0.25065067 
0.28333322 	 -0.20309447 	 0.26301962 
0.29999988 	 -0.21351043 	 0.27506307 
0.31666654 	 -0.22262439 	 0.28743202 
0.33333320 	 -0.23271485 	 0.29980097 
0.34999986 	 -0.24410730 	 0.31216992 
0.36666652 	 -0.25419776 	 0.32518986 
0.38333318 	 -0.26526472 	 0.33658232 
0.39999984 	 -0.27437868 	 0.34927677 
0.41666650 	 -0.28512013 	 0.36197121 
0.43333316 	 -0.29716358 	 0.37368917 
0.44999982 	 -0.30725404 	 0.38638361 
0.46666648 	 -0.31864650 	 0.39972906 
0.48333314 	 -0.32938795 	 0.41112151 
0.49999980 	 -0.34078041 	 0.42349046 
0.51666646 	 -0.35217286 	 0.43585941 
0.53333312 	 -0.36258882 	 0.44790286 
0.54999978 	 -0.37398127 	 0.46027181 
0.56666644 	 -0.38569922 	 0.47198976 
0.58333310 	 -0.39676618 	 0.48598621 
0.59999976 	 -0.40815863 	 0.49705316 
0.61666642 	 -0.41987658 	 0.50909661 
0.63333308 	 -0.43126903 	 0.52081456 
0.64999974 	 -0.44266149 	 0.53318351 
0.66666640 	 -0.45437944 	 0.54555246 
0.68333306 	 -0.46642289 	 0.55727041 
0.69999972 	 -0.47781534 	 0.56963936 
0.71666638 	 -0.48953330 	 0.58135731 
0.73333304 	 -0.50125125 	 0.59274977 
0.74999970 	 -0.51199270 	 0.60511872 
0.76666636 	 -0.52403615 	 0.61781317 
0.78333302 	 -0.53575411 	 0.63018211 
0.79999968 	 -0.54714656 	 0.64190007 
0.81666634 	 -0.55919001 	 0.65361802 
0.83333300 	 -0.56993147 	 0.66435947 
0.84999966 	 -0.58230042 	 0.67640293 
0.86666632 	 -0.59369287 	 0.68877187 
0.88333298 	 -0.60573632 	 0.70146632 
0.89999964 	 -0.61680327 	 0.71188228 
0.91666630 	 -0.62949772 	 0.72392573 
0.93333296 	 -0.64089018 	 0.73629468 
0.94999962 	 -0.65195713 	 0.74671064 
0.96666628 	 -0.66432608 	 0.75875409 
0.98333294 	 -0.67539303 	 0.77047204 
0.99999960 	 -0.68678549 	 0.78251549 
1.01666626 	 -0.69915444 	 0.79423344 
1.03333292 	 -0.70957039 	 0.80497490 
1.04999958 	 -0.72161384 	 0.81604185 
1.06666624 	 -0.73235530 	 0.82808530 
1.08333290 	 -0.74439875 	 0.83915226 
1.09999956 	 -0.75579120 	 0.85021921 
1.11666622 	 -0.76685816 	 0.86226266 
1.13333288 	 -0.77955261 	 0.87332962 
1.14999954 	 -0.79127056 	 0.88439657 
1.16666620 	 -0.80168652 	 0.89578903 
1.18333286 	 -0.81372997 	 0.90685598 
1.19999952 	 -0.82544792 	 0.91792294 
1.21666618 	 -0.83618938 	 0.92964089 
1.23333284 	 -0.84758183 	 0.94103334 
1.24999950 	 -0.85929978 	 0.95242579 
1.26666616 	 -0.86971574 	 0.96284175 
1.28333282 	 -0.88175919 	 0.97455970 
1.29999948 	 -0.89315164 	 0.98432466 
1.31666614 	 -0.90486959 	 0.99539162 
1.33333280 	 -0.91561105 	 1.00645857 
1.34999946 	 -0.92667800 	 1.01687453 
1.36666612 	 -0.93807046 	 1.02761599 
1.38333278 	 -0.94881191 	 1.03835744 
1.39999944 	 -0.95955337 	 1.04942440 
1.41666610 	 -0.97029483 	 1.06049135 
1.43333276 	 -0.98136178 	 1.07090731 
1.44999942 	 -0.99307973 	 1.08197426 
1.46666608 	 -1.00349569 	 1.09173922 
1.48333274 	 -1.01553914 	 1.10215518 
1.49999940 	 -1.02562960 	 1.11289664 
1.51666606 	 -1.03669655 	 1.12331259 
1.53333272 	 -1.04678701 	 1.13340305 
1.54999938 	 -1.05817947 	 1.14414451 
1.56666604 	 -1.06859542 	 1.15423497 
1.58333270 	 -1.07901138 	 1.16465092 
1.59999936 	 -1.08975284 	 1.17506688 
1.61666602 	 -1.10049429 	 1.18352985 
1.63333268 	 -1.11091025 	 1.19492230 
1.64999934 	 -1.12230270 	 1.20501276 
1.66666600 	 -1.13271866 	 1.21477772 
1.68333266 	 -1.14280912 	 1.22519368 
1.69999932 	 -1.15322508 	 1.23560963 
1.71666598 	 -1.16364103 	 1.24407260 
1.73333264 	 -1.17405699 	 1.25481405 
1.74999930 	 -1.18382195 	 1.26425352 
1.76666596 	 -1.19488891 	 1.27499497 
1.78333262 	 -1.20497936 	 1.28378344 
1.79999928 	 -1.21539532 	 1.29322290 
1.81666594 	 -1.22613678 	 1.30201136 
1.83333260 	 -1.23492524 	 1.31275282 
1.84999926 	 -1.24599220 	 1.32219228 
1.86666592 	 -1.25543166 	 1.33130624 
1.88333258 	 -1.26519662 	 1.34042020 
1.89999924 	 -1.27561257 	 1.34920867 
1.91666590 	 -1.28570303 	 1.35929913 
1.93333256 	 -1.29579349 	 1.36873859 
1.94999922 	 -1.30490745 	 1.37720155 
1.96666588 	 -1.31434692 	 1.38696651 
1.98333254 	 -1.32443737 	 1.39542948 
1.99999920 	 -1.33452783 	 1.40486894 
2.01666586 	 -1.34364180 	 1.41268091 
2.03333252 	 -1.35340676 	 1.42244587 
2.04999918 	 -1.36284622 	 1.43090883 
2.06666584 	 -1.37261118 	 1.43937180 
2.08333250 	 -1.38237614 	 1.44848576 
2.09999916 	 -1.39181560 	 1.45662323 
2.11666582 	 -1.40092956 	 1.46606269 
2.13333248 	 -1.41036902 	 1.47387466 
2.14999914 	 -1.41915749 	 1.48233762 
2.16666580 	 -1.42729495 	 1.49145158 
2.18333246 	 -1.43738541 	 1.49926355 
2.19999912 	 -1.44584838 	 1.50740102 
2.21666578 	 -1.45593884 	 1.51553849 
2.23333244 	 -1.46407630 	 1.52400145 
2.24999910 	 -1.47253927 	 1.53246442 
2.26666576 	 -1.48197873 	 1.53929989 
2.28333242 	 -1.49044169 	 1.54808835 
2.29999908 	 -1.49988115 	 1.55557482 
2.31666574 	 -1.50866962 	 1.56306129 
2.33333240 	 -1.51680709 	 1.57152426 
2.34999906 	 -1.52657205 	 1.57933622 
2.36666572 	 -1.53438401 	 1.58617170 
2.38333238 	 -1.54154498 	 1.59528566 
2.39999904 	 -1.55098445 	 1.60244663 
2.41666570 	 -1.55912191 	 1.61025860 
2.43333236 	 -1.56758488 	 1.61676857 
2.44999902 	 -1.57604784 	 1.62360404 
2.46666568 	 -1.58483631 	 1.63239251 
2.48333234 	 -1.59232278 	 1.63922798 
2.49999900 	 -1.59980925 	 1.64573795 
2.51666566 	 -1.60762121 	 1.65289892 
2.53333232 	 -1.61575868 	 1.66038539 
2.54999898 	 -1.62422165 	 1.66722086 
2.56666564 	 -1.63105712 	 1.67503283 
2.58333230 	 -1.63952008 	 1.67991531 
2.59999896 	 -1.64668105 	 1.68772728 
2.61666562 	 -1.65449302 	 1.69423725 
2.63333228 	 -1.66230499 	 1.70139822 
2.64999894 	 -1.67011696 	 1.70725720 
2.66666560 	 -1.67695243 	 1.71279068 
2.68333226 	 -1.68411340 	 1.72092814 
2.69999892 	 -1.69192537 	 1.72711262 
2.71666558 	 -1.69973734 	 1.73329709 
2.73333224 	 -1.70592181 	 1.73850507 
2.74999890 	 -1.71340828 	 1.74534054 
2.76666556 	 -1.72024375 	 1.75152502 
2.78333222 	 -1.72740472 	 1.75705850 
2.79999888 	 -1.73456569 	 1.76389397 
2.81666554 	 -1.74107567 	 1.76910195 
2.83333220 	 -1.74726014 	 1.77496092 
2.84999886 	 -1.75474661 	 1.78016890 
2.86666552 	 -1.76223308 	 1.78700437 
2.88333218 	 -1.76841755 	 1.79188685 
2.89999884 	 -1.77427653 	 1.79774583 
2.91666550 	 -1.78111200 	 1.80360481 
2.93333216 	 -1.78729648 	 1.80848729 
2.94999882 	 -1.79413195 	 1.81434626 
2.96666548 	 -1.80031642 	 1.82053074 
2.98333214 	 -1.80584990 	 1.82476222 
2.99999880 	 -1.81235987 	 1.82964470 
3.01666546 	 -1.81789335 	 1.83420168 
3.03333212 	 -1.82505432 	 1.83875866 
3.04999878 	 -1.83026230 	 1.84494314 
3.06666544 	 -1.83612128 	 1.84884912 
3.08333210 	 -1.84230575 	 1.85405710 
3.09999876 	 -1.84783923 	 1.85828858 
3.11666542 	 -1.85337271 	 1.86349656 
3.13333208 	 -1.85890618 	 1.86837904 
3.14999874 	 -1.86443966 	 1.87195953 
3.16666540 	 -1.87062414 	 1.87684201 
3.18333206 	 -1.87583211 	 1.88074799 
3.19999872 	 -1.88104009 	 1.88530497 
3.21666538 	 -1.88592257 	 1.88921095 
3.23333204 	 -1.89113055 	 1.89474443 
3.24999870 	 -1.89698953 	 1.89669742 
3.26666536 	 -1.90187201 	 1.90125441 
3.28333202 	 -1.90675449 	 1.90450939 
3.29999868 	 -1.91131147 	 1.90906637 
3.31666534 	 -1.91651945 	 1.91232136 
3.33333200 	 -1.92107643 	 1.91655284 
3.34999866 	 -1.92530791 	 1.92045883 
3.36666532 	 -1.93051589 	 1.92306282 
3.38333198 	 -1.93474737 	 1.92664330 
3.39999864 	 -1.93865336 	 1.92957279 
3.41666530 	 -1.94386134 	 1.93282778 
3.43333196 	 -1.94776732 	 1.93510627 
3.44999862 	 -1.95199880 	 1.93868675 
3.46666528 	 -1.95557929 	 1.94259274 
3.48333194 	 -1.96013627 	 1.94454573 
3.49999860 	 -1.96371675 	 1.94812621 
3.51666526 	 -1.96827374 	 1.95170670 
3.53333192 	 -1.97152872 	 1.95333419 
3.54999858 	 -1.97608570 	 1.95626368 
3.56666524 	 -1.97934069 	 1.95789117 
3.58333190 	 -1.98292118 	 1.96082066 
3.59999856 	 -1.98650166 	 1.96342465 
3.61666522 	 -1.99040764 	 1.96602864 
3.63333188 	 -1.99301163 	 1.96765613 
3.64999854 	 -1.99659212 	 1.97058562 
3.66666520 	 -2.00017260 	 1.97221311 
3.68333186 	 -2.00310209 	 1.97416611 
3.69999852 	 -2.00505508 	 1.97644460 
3.71666518 	 -2.00928657 	 1.97872309 
3.73333184 	 -2.01221606 	 1.98035058 
3.74999850 	 -2.01482004 	 1.98165258 
3.76666516 	 -2.01807503 	 1.98328007 
3.78333182 	 -2.02100452 	 1.98490756 
3.79999848 	 -2.02393401 	 1.98588406 
3.81666514 	 -2.02621250 	 1.98783705 
3.83333180 	 -2.02783999 	 1.98848805 
3.84999846 	 -2.03109498 	 1.99076654 
3.86666512 	 -2.03337347 	 1.99109204 
3.88333178 	 -2.03565196 	 1.99174303 
3.89999844 	 -2.03760495 	 1.99304503 
3.91666510 	 -2.03988344 	 1.99499802 
3.93333176 	 -2.04118544 	 1.99499802 
3.94999842 	 -2.04313843 	 1.99597452 
3.96666508 	 -2.04574242 	 1.99695101 
3.98333174 	 -2.04736991 	 1.99727651 
3.99999840 	 -2.04997390 	 1.99727651 
4.01666506 	 -2.05127590 	 1.99792751 
4.03333172 	 -2.05225239 	 1.99857851 
4.04999838 	 -2.05420538 	 1.99857851 
4.06666504 	 -2.05453088 	 1.99857851 
4.08333170 	 -2.05648387 	 1.99857851 
4.09999836 	 -2.05746037 	 1.99857851 
4.11666502 	 -2.06006436 	 1.99922950 
4.13333168 	 -2.06006436 	 1.99857851 
4.14999834 	 -2.06104086 	 1.99825301 
4.16666500 	 -2.06136635 	 1.99825301 
4.18333166 	 -2.06331935 	 1.99662551 
4.19999832 	 -2.06364484 	 1.99727651 
4.21666498 	 -2.06429584 	 1.99662551 
4.23333164 	 -2.06494684 	 1.99630002 
4.24999830 	 -2.06624883 	 1.99499802 
4.26666496 	 -2.06592334 	 1.99467252 
4.28333162 	 -2.06624883 	 1.99369603 
4.29999828 	 -2.06689983 	 1.99337053 
4.31666494 	 -2.06722533 	 1.99304503 
4.33333160 	 -2.06722533 	 1.99141754 
4.34999826 	 -2.06689983 	 1.99011554 
4.36666492 	 -2.06722533 	 1.98881355 
4.38333158 	 -2.06689983 	 1.98718605 
4.39999824 	 -2.06689983 	 1.98686055 
4.41666490 	 -2.06592334 	 1.98425656 
4.43333156 	 -2.06689983 	 1.98295457 
4.44999822 	 -2.06559784 	 1.98165258 
4.46666488 	 -2.06527234 	 1.98035058 
4.48333154 	 -2.06527234 	 1.97742109 
4.49999820 	 -2.06462134 	 1.97611910 
4.51666486 	 -2.06364484 	 1.97416611 
4.53333152 	 -2.06266835 	 1.97221311 
4.54999818 	 -2.06201735 	 1.96928363 
4.56666484 	 -2.06104086 	 1.96830713 
4.58333150 	 -2.06006436 	 1.96537764 
4.59999816 	 -2.05876236 	 1.96342465 
4.61666482 	 -2.05778587 	 1.96082066 
4.63333148 	 -2.05680937 	 1.95789117 
4.64999814 	 -2.05485638 	 1.95593818 
4.66666480 	 -2.05355439 	 1.95300869 
4.68333146 	 -2.05192689 	 1.95138120 
4.69999812 	 -2.05095040 	 1.94845171 
4.71666478 	 -2.04834641 	 1.94584772 
4.73333144 	 -2.04704441 	 1.94161624 
4.74999810 	 -2.04574242 	 1.93966325 
4.76666476 	 -2.04378943 	 1.93575726 
4.78333142 	 -2.04118544 	 1.93282778 
4.79999808 	 -2.03988344 	 1.92924729 
4.81666474 	 -2.03695395 	 1.92566681 
4.83333140 	 -2.03532646 	 1.92306282 
4.84999806 	 -2.03337347 	 1.91948233 
4.86666472 	 -2.03011848 	 1.91492535 
4.88333138 	 -2.02783999 	 1.91232136 
4.89999804 	 -2.02491050 	 1.90874087 
4.91666470 	 -2.02263201 	 1.90516039 
4.93333136 	 -2.02002802 	 1.90060341 
4.94999802 	 -2.01774953 	 1.89702292 
4.96666468 	 -2.01449455 	 1.89344244 
4.98333134 	 -2.01221606 	 1.88921095 
4.99999800 	 -2.00896107 	 1.88530497 
5.01666466 	 -2.00603158 	 1.88074799 
5.03333132 	 -2.00342759 	 1.87651651 
5.04999798 	 -1.99984711 	 1.87163403 
5.06666464 	 -1.99529012 	 1.86707705 
5.08333130 	 -1.99268614 	 1.86349656 
5.09999796 	 -1.98878015 	 1.85861408 
5.11666462 	 -1.98617616 	 1.85405710 
5.13333128 	 -1.98227018 	 1.84917462 
5.14999794 	 -1.97868969 	 1.84429214 
5.16666460 	 -1.97413271 	 1.83875866 
5.18333126 	 -1.97087772 	 1.83517818 
5.19999792 	 -1.96729724 	 1.82931920 
5.21666458 	 -1.96339126 	 1.82443672 
5.23333124 	 -1.95948527 	 1.81890324 
5.24999790 	 -1.95525379 	 1.81369526 
5.26666456 	 -1.95102231 	 1.80913828 
5.28333122 	 -1.94646532 	 1.80425580 
5.29999788 	 -1.94158284 	 1.79839683 
5.31666454 	 -1.93767686 	 1.79221235 
5.33333120 	 -1.93377088 	 1.78732987 
5.34999786 	 -1.92921390 	 1.78081990 
5.36666452 	 -1.92465691 	 1.77528642 
5.38333118 	 -1.91944894 	 1.76910195 
5.39999784 	 -1.91489195 	 1.76324297 
5.41666450 	 -1.90968398 	 1.75705850 
5.43333116 	 -1.90447600 	 1.75152502 
5.44999782 	 -1.89926802 	 1.74534054 
5.46666448 	 -1.89503654 	 1.73850507 
5.48333114 	 -1.89015406 	 1.73297159 
5.49999780 	 -1.88429508 	 1.72743812 
5.51666446 	 -1.87941260 	 1.72060265 
5.53333112 	 -1.87387912 	 1.71409267 
5.54999778 	 -1.86802015 	 1.70758270 
5.56666444 	 -1.86281217 	 1.69977073 
5.58333110 	 -1.85760419 	 1.69488825 
5.59999776 	 -1.85174521 	 1.68772728 
5.61666442 	 -1.84653723 	 1.68056631 
5.63333108 	 -1.84100376 	 1.67438184 
5.64999774 	 -1.83449378 	 1.66624437 
5.66666440 	 -1.82863481 	 1.66038539 
5.68333106 	 -1.82310133 	 1.65322442 
5.69999772 	 -1.81626586 	 1.64541245 
5.71666438 	 -1.81105788 	 1.63955348 
5.73333104 	 -1.80487340 	 1.63109051 
5.74999770 	 -1.79803793 	 1.62425504 
5.76666436 	 -1.79152796 	 1.61611757 
5.78333102 	 -1.78436699 	 1.60993310 
5.79999768 	 -1.77948451 	 1.60147013 
5.81666434 	 -1.77199804 	 1.59398366 
5.83333100 	 -1.76581357 	 1.58682269 
5.84999766 	 -1.75930359 	 1.57868523 
5.86666432 	 -1.75311912 	 1.57087326 
5.88333098 	 -1.74595815 	 1.56371229 
5.89999764 	 -1.73912267 	 1.55622582 
5.91666430 	 -1.73163621 	 1.54776285 
5.93333096 	 -1.72480073 	 1.54027638 
5.94999762 	 -1.71829076 	 1.53311541 
5.96666428 	 -1.71178079 	 1.52335045 
5.98333094 	 -1.70396882 	 1.51586398 
5.99999760 	 -1.69648235 	 1.50740102 
6.01666426 	 -1.68899588 	 1.49991455 
6.03333092 	 -1.68248591 	 1.49080059 
6.04999758 	 -1.67402294 	 1.48266312 
6.06666424 	 -1.66751297 	 1.47387466 
6.08333090 	 -1.65937550 	 1.46541169 
6.09999756 	 -1.65221453 	 1.45629773 
6.11666422 	 -1.64440256 	 1.44816026 
6.13333088 	 -1.63626510 	 1.43969730 
6.14999754 	 -1.62910413 	 1.43058333 
6.16666420 	 -1.62096666 	 1.42309686 
6.18333086 	 -1.61315469 	 1.41300641 
6.19999752 	 -1.60534272 	 1.40519444 
6.21666418 	 -1.59720526 	 1.39477848 
6.23333084 	 -1.58939329 	 1.38664101 
6.24999750 	 -1.58060482 	 1.37655056 
6.26666416 	 -1.57311835 	 1.36841309 
6.28333082 	 -1.56400439 	 1.35929913 
6.29999748 	 -1.55554143 	 1.34985967 
6.31666414 	 -1.54740396 	 1.34009471 
6.33333080 	 -1.53829000 	 1.33130624 
6.34999746 	 -1.53112903 	 1.32089028 
6.36666412 	 -1.52201506 	 1.31242732 
6.38333078 	 -1.51355210 	 1.30233686 
6.39999744 	 -1.50411264 	 1.29289740 
6.41666410 	 -1.49662617 	 1.28410893 
6.43333076 	 -1.48816320 	 1.27369298 
6.44999742 	 -1.47904924 	 1.26295152 
6.46666408 	 -1.46993528 	 1.25448856 
6.48333074 	 -1.46017032 	 1.24472360 
6.49999740 	 -1.45203285 	 1.23463314 
6.51666406 	 -1.44324439 	 1.22454268 
6.53333072 	 -1.43315393 	 1.21412672 
6.54999738 	 -1.42436546 	 1.20501276 
6.56666404 	 -1.41525150 	 1.19492230 
6.58333070 	 -1.40613754 	 1.18548284 
6.59999736 	 -1.39669808 	 1.17409039 
6.61666402 	 -1.38725862 	 1.16432543 
6.63333068 	 -1.37847015 	 1.15325847 
6.64999734 	 -1.36837969 	 1.14447001 
6.66666400 	 -1.35861473 	 1.13372855 
6.68333066 	 -1.34852428 	 1.12331259 
6.69999732 	 -1.33941031 	 1.11257114 
6.71666398 	 -1.32964535 	 1.10215518 
6.73333064 	 -1.32020589 	 1.09076273 
6.74999730 	 -1.31044093 	 1.08067227 
6.76666396 	 -1.30002497 	 1.07090731 
6.78333062 	 -1.29091101 	 1.05951486 
6.79999728 	 -1.28049505 	 1.04942440 
6.81666394 	 -1.27073009 	 1.03835744 
6.83333060 	 -1.26096513 	 1.02761599 
6.84999726 	 -1.24957268 	 1.01752553 
6.86666392 	 -1.24045872 	 1.00678407 
6.88333058 	 -1.23036826 	 0.99571712 
6.89999724 	 -1.22092880 	 0.98367367 
6.91666390 	 -1.21051284 	 0.97293221 
6.93333056 	 -1.20009688 	 0.96219075 
6.94999722 	 -1.18902993 	 0.95242579 
6.96666388 	 -1.17861397 	 0.94103334 
6.98333054 	 -1.16787252 	 0.92964089 
6.99999720 	 -1.15810756 	 0.91857393 
7.01666386 	 -1.14736610 	 0.90750698 
7.03333052 	 -1.13760114 	 0.89546353 
7.04999718 	 -1.12620869 	 0.88407107 
7.06666384 	 -1.11611823 	 0.87300412 
7.08333050 	 -1.10505127 	 0.86258816 
7.09999716 	 -1.09496081 	 0.85054471 
7.11666382 	 -1.08356836 	 0.83980326 
7.13333048 	 -1.07282691 	 0.82775980 
7.14999714 	 -1.06208545 	 0.81669285 
7.16666380 	 -1.05134399 	 0.80530040 
7.18333046 	 -1.04060254 	 0.79390794 
7.19999712 	 -1.02888459 	 0.78251549 
7.21666378 	 -1.01781763 	 0.77047204 
7.23333044 	 -1.00707617 	 0.75875409 
7.24999710 	 -0.99600922 	 0.74671064 
7.26666376 	 -0.98559326 	 0.73596918 
7.28333042 	 -0.97485181 	 0.72360023 
7.29999708 	 -0.96313385 	 0.71220778 
7.31666374 	 -0.95206690 	 0.70016433 
7.33333040 	 -0.94067445 	 0.68844638 
7.34999706 	 -0.92960749 	 0.67672842 
7.36666372 	 -0.91788954 	 0.66435947 
7.38333038 	 -0.90714808 	 0.65264152 
7.39999704 	 -0.89543013 	 0.64059807 
7.41666370 	 -0.88371218 	 0.62985662 
7.43333036 	 -0.87231973 	 0.61651117 
7.44999702 	 -0.86125277 	 0.60544422 
7.46666368 	 -0.84920932 	 0.59340077 
7.48333034 	 -0.83814237 	 0.58168281 
7.49999700 	 -0.82642442 	 0.56931386 
7.51666366 	 -0.81470646 	 0.55694491 
7.53333032 	 -0.80396501 	 0.54490146 
7.54999698 	 -0.79159606 	 0.53253252 
7.56666364 	 -0.77987811 	 0.52048906 
7.58333030 	 -0.76816015 	 0.50877111 
7.59999696 	 -0.75579120 	 0.49705316 
7.61666362 	 -0.74504975 	 0.48500971 
7.63333028 	 -0.73235530 	 0.47264076 
7.64999694 	 -0.72063735 	 0.46027181 
7.66666360 	 -0.70891940 	 0.44855386 
7.68333026 	 -0.69752694 	 0.43553391 
7.69999692 	 -0.68548349 	 0.42349046 
7.71666358 	 -0.67344004 	 0.41079601 
7.73333024 	 -0.66139659 	 0.39940356 
7.74999690 	 -0.64935314 	 0.38670911 
7.76666356 	 -0.63730969 	 0.37368917 
7.78333022 	 -0.62494074 	 0.36229671 
7.79999688 	 -0.61354829 	 0.35025326 
7.81666354 	 -0.60183034 	 0.33723332 
7.83333020 	 -0.58978689 	 0.32518986 
7.84999686 	 -0.57774343 	 0.31216992 
7.86666352 	 -0.56407249 	 0.30110296 
7.88333018 	 -0.55300554 	 0.28710652 
7.89999684 	 -0.54063659 	 0.27441207 
7.91666350 	 -0.52826764 	 0.26334512 
7.93333016 	 -0.51622419 	 0.25097617 
7.94999682 	 -0.50385524 	 0.23730523 
7.96666348 	 -0.49181179 	 0.22526177 
7.98333014 	 -0.47911734 	 0.21321832 
7.99999680 	 -0.46739939 	 0.20019838 
8.01666346 	 -0.45503044 	 0.18782943 
8.03333012 	 -0.44201049 	 0.17513498 
8.04999678 	 -0.43029254 	 0.16309153 
8.06666344 	 -0.41824909 	 0.15039708 
8.08333010 	 -0.40555464 	 0.13802813 
8.09999676 	 -0.39286019 	 0.12565918 
8.11666342 	 -0.38081674 	 0.11263924 
8.13333008 	 -0.36812229 	 0.10092128 
8.14999674 	 -0.35542785 	 0.08692484 
8.16666340 	 -0.34240790 	 0.07585789 
8.18333006 	 -0.33134094 	 0.06218694 
8.19999672 	 -0.31864650 	 0.04981799 
8.21666338 	 -0.30627755 	 0.03777454 
8.23333004 	 -0.29358310 	 0.02540559 
8.24999670 	 -0.28056315 	 0.01271115 
8.26666336 	 -0.26884520 	 0.00001670 
8.28333002 	 -0.25647625 	 -0.01267775 
8.29999668 	 -0.24345630 	 -0.02504670 
8.31666334 	 -0.23141285 	 -0.03709015 
8.33333000 	 -0.21774191 	 -0.04913360 
8.34999666 	 -0.20700045 	 -0.06280454 
8.36666332 	 -0.19267851 	 -0.07517349 
8.38332998 	 -0.18063506 	 -0.08786794 
8.39999664 	 -0.16859161 	 -0.10056239 
8.41666330 	 -0.15654816 	 -0.11260584 
8.43332996 	 -0.14352821 	 -0.12595129 
8.44999662 	 -0.13050827 	 -0.13832024 
8.46666328 	 -0.11879032 	 -0.15068918 
8.48332994 	 -0.10544487 	 -0.16338363 
8.49999660 	 -0.09307592 	 -0.17477609 
