time (s) 	 Output Voltage(v) 	 Input Voltage(v)
0.00000000 	 0.21854675 	 0.07444388 
0.00500000 	 0.23574822 	 0.07833855 
0.01000000 	 0.24937957 	 0.08450511 
0.01500000 	 0.26398459 	 0.08937345 
0.02000000 	 0.27891417 	 0.09359268 
0.02500000 	 0.29579108 	 0.09975925 
0.03000000 	 0.31072066 	 0.10462759 
0.03500000 	 0.32500113 	 0.10917137 
0.04000000 	 0.33830792 	 0.11403971 
0.04500000 	 0.35583395 	 0.11923261 
0.05000000 	 0.36914074 	 0.12410095 
0.05500000 	 0.38536855 	 0.12994296 
0.06000000 	 0.39964901 	 0.13383763 
0.06500000 	 0.41522770 	 0.13967964 
0.07000000 	 0.42983272 	 0.14487253 
0.07500000 	 0.44573597 	 0.14974087 
0.08000000 	 0.45806909 	 0.15396010 
0.08500000 	 0.47494601 	 0.15882844 
0.09000000 	 0.49020014 	 0.16467045 
0.09500000 	 0.50512972 	 0.16921424 
0.10000000 	 0.52038385 	 0.17375802 
0.10500000 	 0.53433976 	 0.17862636 
0.11000000 	 0.54862022 	 0.18414381 
0.11500000 	 0.56354980 	 0.19031038 
0.12000000 	 0.57912849 	 0.19452960 
0.12500000 	 0.59405807 	 0.19939795 
0.13000000 	 0.60996131 	 0.20426629 
0.13500000 	 0.62618911 	 0.20945918 
0.14000000 	 0.63917135 	 0.21465208 
0.14500000 	 0.65604827 	 0.22049409 
0.15000000 	 0.67065329 	 0.22503787 
0.15500000 	 0.68655653 	 0.22958166 
0.16000000 	 0.69986333 	 0.23509911 
0.16500000 	 0.71511746 	 0.23931834 
0.17000000 	 0.73004704 	 0.24418668 
0.17500000 	 0.74465206 	 0.24905502 
0.18000000 	 0.76055531 	 0.25457247 
0.18500000 	 0.77418666 	 0.25911625 
0.19000000 	 0.78911624 	 0.26528282 
0.19500000 	 0.80437037 	 0.26982660 
0.20000000 	 0.82059817 	 0.27469494 
0.20500000 	 0.83455408 	 0.27923873 
0.21000000 	 0.84980821 	 0.28410707 
0.21500000 	 0.86408868 	 0.28962452 
0.22000000 	 0.87999192 	 0.29481742 
0.22500000 	 0.89427239 	 0.29968576 
0.23000000 	 0.90985108 	 0.30422954 
0.23500000 	 0.92445610 	 0.30974699 
0.24000000 	 0.94100846 	 0.31493989 
0.24500000 	 0.95496436 	 0.31915912 
0.25000000 	 0.96892027 	 0.32565024 
0.25500000 	 0.98547263 	 0.32954491 
0.26000000 	 0.99975310 	 0.33506236 
0.26500000 	 1.01533178 	 0.33960615 
0.27000000 	 1.02993681 	 0.34447449 
0.27500000 	 1.04519094 	 0.35031650 
0.28000000 	 1.05849774 	 0.35453572 
0.28500000 	 1.07537465 	 0.36005318 
0.29000000 	 1.08965511 	 0.36459696 
0.29500000 	 1.10523380 	 0.36946530 
0.30000000 	 1.12081249 	 0.37368453 
0.30500000 	 1.13476840 	 0.37985109 
0.31000000 	 1.14937342 	 0.38471943 
0.31500000 	 1.16592578 	 0.38893866 
0.32000000 	 1.18085536 	 0.39510523 
0.32500000 	 1.19610949 	 0.39899990 
0.33000000 	 1.21071451 	 0.40451735 
0.33500000 	 1.22402131 	 0.41035936 
0.34000000 	 1.24057366 	 0.41490314 
0.34500000 	 1.25550324 	 0.41944693 
0.35000000 	 1.27010826 	 0.42561349 
0.35500000 	 1.28438873 	 0.42983272 
0.36000000 	 1.29931830 	 0.43470106 
0.36500000 	 1.31327421 	 0.43956940 
0.37000000 	 1.32820379 	 0.44378863 
0.37500000 	 1.34410703 	 0.44995519 
0.38000000 	 1.36033484 	 0.45514809 
0.38500000 	 1.37558897 	 0.46066554 
0.39000000 	 1.38922032 	 0.46456022 
0.39500000 	 1.40577268 	 0.46877944 
0.40000000 	 1.42070226 	 0.47559512 
0.40500000 	 1.43400905 	 0.47884068 
0.41000000 	 1.44893863 	 0.48533180 
0.41500000 	 1.46614010 	 0.48890192 
0.42000000 	 1.48074512 	 0.49409481 
0.42500000 	 1.49567470 	 0.50091049 
0.43000000 	 1.50833238 	 0.50545427 
0.43500000 	 1.52488474 	 0.50967350 
0.44000000 	 1.53981432 	 0.51486640 
0.44500000 	 1.55441934 	 0.51973474 
0.45000000 	 1.56740158 	 0.52395397 
0.45500000 	 1.58492760 	 0.52979598 
0.46000000 	 1.60018174 	 0.53401520 
0.46500000 	 1.61413764 	 0.54018177 
0.47000000 	 1.62809355 	 0.54472555 
0.47500000 	 1.64497047 	 0.54991845 
0.48000000 	 1.66054916 	 0.55576046 
0.48500000 	 1.67547873 	 0.56062880 
0.49000000 	 1.68878553 	 0.56452347 
0.49500000 	 1.70339055 	 0.56971637 
0.50000000 	 1.71994291 	 0.57458471 
0.50500000 	 1.73487249 	 0.58010216 
0.51000000 	 1.74882839 	 0.58464594 
0.51500000 	 1.76473164 	 0.58918973 
0.52000000 	 1.77966122 	 0.59470718 
0.52500000 	 1.79491535 	 0.60022463 
0.53000000 	 1.80919581 	 0.60476842 
0.53500000 	 1.82412539 	 0.60931220 
0.54000000 	 1.83808130 	 0.61450510 
0.54500000 	 1.85463366 	 0.62034711 
0.55000000 	 1.87086146 	 0.62586456 
0.55500000 	 1.88546648 	 0.63008379 
0.56000000 	 1.89974694 	 0.63495213 
0.56500000 	 1.91370285 	 0.64014502 
0.57000000 	 1.92895699 	 0.64468881 
0.57500000 	 1.94356201 	 0.64988170 
0.58000000 	 1.95946525 	 0.65475004 
0.58500000 	 1.97536850 	 0.65994294 
0.59000000 	 1.98997352 	 0.66578495 
0.59500000 	 2.00360487 	 0.66903051 
0.60000000 	 2.01885900 	 0.67519707 
0.60500000 	 2.03476225 	 0.68006541 
0.61000000 	 2.05066549 	 0.68525831 
0.61500000 	 2.06462140 	 0.68947754 
0.62000000 	 2.07987554 	 0.69499499 
0.62500000 	 2.09448056 	 0.69953878 
0.63000000 	 2.10908558 	 0.70505623 
0.63500000 	 2.12401516 	 0.71024912 
0.64000000 	 2.13991840 	 0.71446835 
0.64500000 	 2.15484798 	 0.71933669 
0.65000000 	 2.16977755 	 0.72517870 
0.65500000 	 2.18405802 	 0.73004704 
0.66000000 	 2.20028582 	 0.73491538 
0.66500000 	 2.21586451 	 0.74010828 
0.67000000 	 2.22949586 	 0.74530117 
0.67500000 	 2.24475000 	 0.75049407 
0.68000000 	 2.25967957 	 0.75601152 
0.68500000 	 2.27428459 	 0.76120442 
0.69000000 	 2.28953873 	 0.76509909 
0.69500000 	 2.30511742 	 0.76964288 
0.70000000 	 2.31907332 	 0.77516033 
0.70500000 	 2.33400290 	 0.78035322 
0.71000000 	 2.34925703 	 0.78587068 
0.71500000 	 2.36418661 	 0.79041446 
0.72000000 	 2.37879163 	 0.79495825 
0.72500000 	 2.39307210 	 0.80047570 
0.73000000 	 2.40929990 	 0.80631771 
0.73500000 	 2.42293125 	 0.81021238 
0.74000000 	 2.43850994 	 0.81508072 
0.74500000 	 2.45441319 	 0.81929995 
0.75000000 	 2.46966732 	 0.82546651 
0.75500000 	 2.48427234 	 0.83098396 
0.76000000 	 2.49952647 	 0.83585230 
0.76500000 	 2.51640339 	 0.84072064 
0.77000000 	 2.52971018 	 0.84558898 
0.77500000 	 2.54463976 	 0.85078188 
0.78000000 	 2.55924478 	 0.85500111 
0.78500000 	 2.57449891 	 0.86019401 
0.79000000 	 2.58780571 	 0.86571146 
0.79500000 	 2.60500718 	 0.87057980 
0.80000000 	 2.61993676 	 0.87512358 
0.80500000 	 2.63356811 	 0.88031648 
0.81000000 	 2.64882224 	 0.88615849 
0.81500000 	 2.66505004 	 0.89037772 
0.82000000 	 2.67965506 	 0.89492150 
0.82500000 	 2.69490920 	 0.89978984 
0.83000000 	 2.70983877 	 0.90595640 
0.83500000 	 2.72509291 	 0.91050019 
0.84000000 	 2.73872426 	 0.91569309 
0.84500000 	 2.75397839 	 0.92023687 
0.85000000 	 2.77117986 	 0.92542977 
0.85500000 	 2.78448666 	 0.93094722 
0.86000000 	 2.80038991 	 0.93581556 
0.86500000 	 2.81434581 	 0.94035934 
0.87000000 	 2.82959995 	 0.94490313 
0.87500000 	 2.84485408 	 0.95009602 
0.88000000 	 2.85783632 	 0.95561348 
0.88500000 	 2.87373957 	 0.96048182 
0.89000000 	 2.88996737 	 0.96535016 
0.89500000 	 2.90457239 	 0.97086761 
0.90000000 	 2.91982652 	 0.97573595 
0.90500000 	 2.93605432 	 0.98157796 
0.91000000 	 2.94903656 	 0.98644630 
0.91500000 	 2.96429070 	 0.99034097 
0.92000000 	 2.97922027 	 0.99553387 
0.92500000 	 2.99414985 	 0.99975310 
0.93000000 	 3.00843032 	 1.00591966 
0.93500000 	 3.02498267 	 1.01111256 
0.94000000 	 3.04056136 	 1.01598090 
0.94500000 	 3.05321905 	 1.02052468 
0.95000000 	 3.06782407 	 1.02571758 
0.95500000 	 3.08437642 	 1.03091047 
0.96000000 	 3.09963056 	 1.03545426 
0.96500000 	 3.11423558 	 1.04032260 
0.97000000 	 3.12981427 	 1.04584005 
0.97500000 	 3.14441929 	 1.05038383 
0.98000000 	 3.16064709 	 1.05622584 
0.98500000 	 3.17395389 	 1.06044507 
0.99000000 	 3.19018169 	 1.06563797 
0.99500000 	 3.20446215 	 1.07147998 
1.00000000 	 3.22004084 	 1.07634832 
1.00500000 	 3.23432131 	 1.08089210 
1.01000000 	 3.25022455 	 1.08608500 
1.01500000 	 3.26450502 	 1.09095334 
1.02000000 	 3.28040826 	 1.09549712 
1.02500000 	 3.29436417 	 1.10036546 
1.03000000 	 3.30929375 	 1.10490925 
1.03500000 	 3.32454788 	 1.11010214 
1.04000000 	 3.34045113 	 1.11659326 
1.04500000 	 3.35278425 	 1.12048794 
1.05000000 	 3.36901206 	 1.12535628 
1.05500000 	 3.38329252 	 1.13054917 
1.06000000 	 3.39887121 	 1.13509296 
1.06500000 	 3.41444990 	 1.14093496 
1.07000000 	 3.42873036 	 1.14482964 
1.07500000 	 3.44398450 	 1.15067165 
1.08000000 	 3.46021230 	 1.15618910 
1.08500000 	 3.47384365 	 1.16040833 
1.09000000 	 3.48877323 	 1.16560122 
1.09500000 	 3.50370280 	 1.17111867 
1.10000000 	 3.52057972 	 1.17696068 
1.10500000 	 3.53388651 	 1.18117991 
1.11000000 	 3.55043887 	 1.18572370 
1.11500000 	 3.56504389 	 1.19156570 
1.12000000 	 3.57997347 	 1.19610949 
1.12500000 	 3.59587671 	 1.20195150 
1.13000000 	 3.60885896 	 1.20617073 
1.13500000 	 3.62281486 	 1.21071451 
1.14000000 	 3.64001633 	 1.21590741 
1.14500000 	 3.65462135 	 1.22110030 
1.15000000 	 3.66890182 	 1.22564409 
1.15500000 	 3.68415595 	 1.23083698 
1.16000000 	 3.69908553 	 1.23635444 
1.16500000 	 3.71466422 	 1.24089822 
1.17000000 	 3.72959380 	 1.24674023 
1.17500000 	 3.74290059 	 1.25128401 
1.18000000 	 3.76042662 	 1.25582780 
1.18500000 	 3.77373341 	 1.26166981 
1.19000000 	 3.78898755 	 1.26588903 
1.19500000 	 3.80391712 	 1.27075737 
1.20000000 	 3.82014493 	 1.27659938 
1.20500000 	 3.83539906 	 1.28211683 
1.21000000 	 3.84903041 	 1.28666062 
1.21500000 	 3.86395999 	 1.29120440 
1.22000000 	 3.87953868 	 1.29509908 
1.22500000 	 3.89479281 	 1.30094108 
1.23000000 	 3.90972239 	 1.30710765 
1.23500000 	 3.92302919 	 1.31067776 
1.24000000 	 3.93990610 	 1.31554610 
1.24500000 	 3.95451112 	 1.32171267 
1.25000000 	 3.96846703 	 1.32690557 
1.25500000 	 3.98404572 	 1.33112479 
1.26000000 	 3.99865074 	 1.33729136 
1.26500000 	 4.01455398 	 1.34215970 
1.27000000 	 4.02915900 	 1.34540526 
1.27500000 	 4.04376403 	 1.35124727 
1.28000000 	 4.05966727 	 1.35676472 
1.28500000 	 4.07459685 	 1.36130850 
1.29000000 	 4.08920187 	 1.36585229 
1.29500000 	 4.10510511 	 1.37136974 
1.30000000 	 4.11971013 	 1.37591352 
1.30500000 	 4.13366604 	 1.38078187 
1.31000000 	 4.14924473 	 1.38629932 
1.31500000 	 4.16417431 	 1.39149221 
1.32000000 	 4.17942844 	 1.39603600 
1.32500000 	 4.19468258 	 1.40122889 
1.33000000 	 4.20928760 	 1.40642179 
1.33500000 	 4.22454173 	 1.41096558 
1.34000000 	 4.23914675 	 1.41583392 
1.34500000 	 4.25505000 	 1.42135137 
1.35000000 	 4.27062868 	 1.42589515 
1.35500000 	 4.28490915 	 1.43141260 
1.36000000 	 4.29918961 	 1.43628094 
1.36500000 	 4.31444375 	 1.44082473 
1.37000000 	 4.32937332 	 1.44634218 
1.37500000 	 4.34462746 	 1.45121052 
1.38000000 	 4.36020615 	 1.45672797 
1.38500000 	 4.37383750 	 1.46159631 
1.39000000 	 4.38811796 	 1.46678921 
1.39500000 	 4.40239843 	 1.47133300 
1.40000000 	 4.42024901 	 1.47587678 
1.40500000 	 4.43452948 	 1.48074512 
1.41000000 	 4.44945905 	 1.48658713 
1.41500000 	 4.46309041 	 1.49210458 
1.42000000 	 4.47899365 	 1.49664836 
1.42500000 	 4.49457234 	 1.50216582 
1.43000000 	 4.50917736 	 1.50703416 
1.43500000 	 4.52410694 	 1.51125339 
1.44000000 	 4.53806285 	 1.51579717 
1.44500000 	 4.55429065 	 1.52131462 
1.45000000 	 4.56986934 	 1.52748119 
1.45500000 	 4.58317613 	 1.53072675 
1.46000000 	 4.59745660 	 1.53656876 
1.46500000 	 4.61303529 	 1.54143710 
1.47000000 	 4.62796486 	 1.54630544 
1.47500000 	 4.64192077 	 1.55182289 
1.48000000 	 4.65782402 	 1.55669123 
1.48500000 	 4.67437638 	 1.56058590 
1.49000000 	 4.68898140 	 1.56675247 
1.49500000 	 4.70326186 	 1.57129625 
1.50000000 	 4.71884055 	 1.57551548 
1.50500000 	 4.73409468 	 1.58168204 
1.51000000 	 4.74902426 	 1.58719950 
1.51500000 	 4.76395384 	 1.59239239 
1.52000000 	 4.77790975 	 1.59628706 
1.52500000 	 4.79413755 	 1.60212907 
1.53000000 	 4.80711979 	 1.60634830 
1.53500000 	 4.82464581 	 1.61154120 
1.54000000 	 4.83957539 	 1.61640954 
1.54500000 	 4.85450497 	 1.62095332 
1.55000000 	 4.86943455 	 1.62711989 
1.55500000 	 4.88566235 	 1.63133911 
1.56000000 	 4.89799547 	 1.63653201 
1.56500000 	 4.91454783 	 1.64107579 
1.57000000 	 4.92753007 	 1.64691780 
1.57500000 	 4.94278421 	 1.65146159 
1.58000000 	 4.95868745 	 1.65632993 
1.58500000 	 4.97231880 	 1.66152282 
1.59000000 	 4.98919572 	 1.66671572 
1.59500000 	 5.00380074 	 1.67158406 
1.60000000 	 5.01678298 	 1.67775063 
1.60500000 	 5.03365989 	 1.68099619 
1.61000000 	 5.04826491 	 1.68716275 
1.61500000 	 5.06416816 	 1.69138198 
1.62000000 	 5.07779951 	 1.69657487 
1.62500000 	 5.09337820 	 1.70111866 
1.63000000 	 5.11025511 	 1.70696067 
1.63500000 	 5.12388647 	 1.71117990 
1.64000000 	 5.13784238 	 1.71637279 
1.64500000 	 5.15439473 	 1.72156569 
1.65000000 	 5.16867520 	 1.72675858 
1.65500000 	 5.18392933 	 1.73227604 
1.66000000 	 5.19885891 	 1.73681982 
1.66500000 	 5.21378848 	 1.74168816 
1.67000000 	 5.22839351 	 1.74720561 
1.67500000 	 5.24397219 	 1.75207395 
1.68000000 	 5.25857722 	 1.75661774 
1.68500000 	 5.27480502 	 1.76148608 
1.69000000 	 5.28843637 	 1.76667898 
1.69500000 	 5.30271683 	 1.77187187 
1.70000000 	 5.31862008 	 1.77771388 
1.70500000 	 5.33322510 	 1.78225766 
1.71000000 	 5.34847923 	 1.78680145 
1.71500000 	 5.36373337 	 1.79199434 
1.72000000 	 5.37898750 	 1.79751180 
1.72500000 	 5.39359252 	 1.80173103 
1.73000000 	 5.40982032 	 1.80595025 
1.73500000 	 5.42410079 	 1.81179226 
1.74000000 	 5.43903036 	 1.81568693 
1.74500000 	 5.45298627 	 1.82185350 
1.75000000 	 5.46791585 	 1.82607273 
1.75500000 	 5.48349454 	 1.83223929 
1.76000000 	 5.49939778 	 1.83678308 
1.76500000 	 5.51270458 	 1.84132686 
1.77000000 	 5.52730960 	 1.84587064 
1.77500000 	 5.54386196 	 1.85236176 
1.78000000 	 5.55944065 	 1.85723011 
1.78500000 	 5.57372111 	 1.86080022 
1.79000000 	 5.58929980 	 1.86696679 
1.79500000 	 5.60293115 	 1.87248424 
1.80000000 	 5.61818529 	 1.87670347 
1.80500000 	 5.63343942 	 1.88124725 
1.81000000 	 5.64836900 	 1.88676470 
1.81500000 	 5.66329857 	 1.89130849 
1.82000000 	 5.67822815 	 1.89617683 
1.82500000 	 5.69348228 	 1.90201884 
1.83000000 	 5.70776275 	 1.90753629 
1.83500000 	 5.72269233 	 1.91143096 
1.84000000 	 5.73859557 	 1.91694841 
1.84500000 	 5.75287604 	 1.92181675 
1.85000000 	 5.76715650 	 1.92636054 
1.85500000 	 5.78403341 	 1.93155343 
1.86000000 	 5.79798932 	 1.93707089 
1.86500000 	 5.81259434 	 1.94096556 
1.87000000 	 5.82752392 	 1.94648301 
1.87500000 	 5.84277805 	 1.95102680 
1.88000000 	 5.85803219 	 1.95751792 
1.88500000 	 5.87328632 	 1.96141259 
1.89000000 	 5.88756679 	 1.96725460 
1.89500000 	 5.90379459 	 1.97179838 
1.90000000 	 5.91872416 	 1.97666672 
1.90500000 	 5.93462741 	 1.98250873 
1.91000000 	 5.94728509 	 1.98640340 
1.91500000 	 5.96221467 	 1.99159630 
1.92000000 	 5.97941614 	 1.99743831 
1.92500000 	 5.99239838 	 2.00133298 
1.93000000 	 6.00732796 	 2.00717499 
1.93500000 	 6.02258209 	 2.01171877 
1.94000000 	 6.03783622 	 2.01691167 
1.94500000 	 6.05341491 	 2.02275368 
1.95000000 	 6.06866905 	 2.02729746 
1.95500000 	 6.08262496 	 2.03184125 
1.96000000 	 6.09885276 	 2.03768325 
1.96500000 	 6.11345778 	 2.04255159 
1.97000000 	 6.12773824 	 2.04709538 
1.97500000 	 6.14396604 	 2.05228827 
1.98000000 	 6.15824651 	 2.05683206 
1.98500000 	 6.17447431 	 2.06170040 
1.99000000 	 6.18778111 	 2.06689330 
1.99500000 	 6.20303524 	 2.07273530 
2.00000000 	 6.21828937 	 2.07695453 
2.00500000 	 6.23256984 	 2.08214743 
2.01000000 	 6.24620119 	 2.08669121 
2.01500000 	 6.26340266 	 2.09188411 
2.02000000 	 6.27670946 	 2.09707701 
2.02500000 	 6.29228815 	 2.10259446 
2.03000000 	 6.30721772 	 2.10778735 
2.03500000 	 6.32182274 	 2.11233114 
2.04000000 	 6.33772599 	 2.11752403 
2.04500000 	 6.35200645 	 2.12206782 
2.05000000 	 6.36661147 	 2.12758527 
2.05500000 	 6.38348839 	 2.13212906 
2.06000000 	 6.39744430 	 2.13667284 
2.06500000 	 6.41367210 	 2.14121662 
2.07000000 	 6.42827712 	 2.14673408 
2.07500000 	 6.44255758 	 2.15322520 
2.08000000 	 6.45716260 	 2.15647076 
2.08500000 	 6.47079396 	 2.16198821 
2.09000000 	 6.48831998 	 2.16718111 
2.09500000 	 6.50357412 	 2.17204945 
2.10000000 	 6.51850369 	 2.17691779 
2.10500000 	 6.53310871 	 2.18211068 
2.11000000 	 6.54674007 	 2.18665447 
2.11500000 	 6.56102053 	 2.19217192 
2.12000000 	 6.57789744 	 2.19639115 
2.12500000 	 6.59282702 	 2.20223316 
2.13000000 	 6.60840571 	 2.20807517 
2.13500000 	 6.62236162 	 2.21261895 
2.14000000 	 6.63696664 	 2.21651362 
2.14500000 	 6.65254533 	 2.22300474 
2.15000000 	 6.66812402 	 2.22754853 
2.15500000 	 6.68175537 	 2.23274142 
2.16000000 	 6.69733406 	 2.23663609 
2.16500000 	 6.71258819 	 2.24215355 
2.17000000 	 6.72751777 	 2.24767100 
2.17500000 	 6.74277190 	 2.25286390 
2.18000000 	 6.75737692 	 2.25740768 
2.18500000 	 6.77165739 	 2.26097780 
2.19000000 	 6.78723608 	 2.26746892 
2.19500000 	 6.80249021 	 2.27233726 
2.20000000 	 6.81774434 	 2.27720560 
2.20500000 	 6.83234937 	 2.28272305 
2.21000000 	 6.84825261 	 2.28694228 
2.21500000 	 6.86123485 	 2.29245973 
2.22000000 	 6.87713810 	 2.29732807 
2.22500000 	 6.89369045 	 2.30219641 
2.23000000 	 6.90699725 	 2.30738931 
2.23500000 	 6.92160227 	 2.31160854 
2.24000000 	 6.93783007 	 2.31680143 
2.24500000 	 6.95308421 	 2.32199433 
2.25000000 	 6.96736467 	 2.32718723 
2.25500000 	 6.98132058 	 2.33238012 
2.26000000 	 6.99657471 	 2.33692391 
2.26500000 	 7.01150429 	 2.34211680 
2.27000000 	 7.02643387 	 2.34730970 
2.27500000 	 7.04233711 	 2.35120437 
2.28000000 	 7.05629302 	 2.35704638 
2.28500000 	 7.07154715 	 2.36126561 
2.29000000 	 7.08745040 	 2.36678306 
2.29500000 	 7.10173086 	 2.37100229 
2.30000000 	 7.11828322 	 2.37651974 
2.30500000 	 7.13256369 	 2.38171264 
2.31000000 	 7.14716871 	 2.38787920 
2.31500000 	 7.16177373 	 2.39209843 
2.32000000 	 7.17735242 	 2.39761588 
2.32500000 	 7.19130833 	 2.40215967 
2.33000000 	 7.20818524 	 2.40735256 
2.33500000 	 7.22246570 	 2.41124723 
2.34000000 	 7.23609706 	 2.41708924 
2.34500000 	 7.25200030 	 2.42163303 
2.35000000 	 7.26595621 	 2.42747504 
2.35500000 	 7.28250857 	 2.43234338 
2.36000000 	 7.29678903 	 2.43753627 
2.36500000 	 7.31106950 	 2.44110639 
2.37000000 	 7.32697274 	 2.44759751 
2.37500000 	 7.34125321 	 2.45214129 
2.38000000 	 7.35553367 	 2.45700963 
2.38500000 	 7.37176147 	 2.46220253 
2.39000000 	 7.38701561 	 2.46739543 
2.39500000 	 7.40162063 	 2.47291288 
2.40000000 	 7.41557654 	 2.47648300 
2.40500000 	 7.43147978 	 2.48264956 
2.41000000 	 7.44705847 	 2.48686879 
2.41500000 	 7.46231260 	 2.49206168 
2.42000000 	 7.47594396 	 2.49757914 
2.42500000 	 7.49119809 	 2.50179836 
2.43000000 	 7.50482944 	 2.50634215 
2.43500000 	 7.52138180 	 2.51250871 
2.44000000 	 7.53663593 	 2.51705250 
2.44500000 	 7.55189007 	 2.52192084 
2.45000000 	 7.56617053 	 2.52743829 
2.45500000 	 7.58272289 	 2.53198207 
2.46000000 	 7.59538057 	 2.53749953 
2.46500000 	 7.61160837 	 2.54236787 
2.47000000 	 7.62588884 	 2.54756076 
2.47500000 	 7.64179208 	 2.55275366 
2.48000000 	 7.65574799 	 2.55729744 
2.48500000 	 7.67100213 	 2.56151667 
2.49000000 	 7.68593170 	 2.56768324 
2.49500000 	 7.70151039 	 2.57255158 
2.50000000 	 7.71676453 	 2.57709536 
2.50500000 	 7.73169410 	 2.58261281 
2.51000000 	 7.74629912 	 2.58715660 
2.51500000 	 7.76187781 	 2.59234950 
2.52000000 	 7.77648283 	 2.59689328 
2.52500000 	 7.79011419 	 2.60208618 
2.53000000 	 7.80504376 	 2.60727907 
2.53500000 	 7.82094701 	 2.61279652 
2.54000000 	 7.83685025 	 2.61701575 
2.54500000 	 7.85177983 	 2.62188409 
2.55000000 	 7.86573574 	 2.62707699 
2.55500000 	 7.88098987 	 2.63162077 
2.56000000 	 7.89591945 	 2.63778734 
2.56500000 	 7.91052447 	 2.64233112 
2.57000000 	 7.92383127 	 2.64752402 
2.57500000 	 7.94135729 	 2.65141869 
2.58000000 	 7.95661143 	 2.65726070 
2.58500000 	 7.97121645 	 2.66180448 
2.59000000 	 7.98647058 	 2.66829560 
2.59500000 	 8.00204927 	 2.67251483 
2.60000000 	 8.01470695 	 2.67738317 
2.60500000 	 8.02963653 	 2.68160240 
2.61000000 	 8.04553978 	 2.68647074 
2.61500000 	 8.06014480 	 2.69198819 
2.62000000 	 8.07539893 	 2.69685653 
